#Peak	ν(F2) [ppm]	ν(F1) [ppm]	ν(F2) [Hz]	ν(F1) [Hz]	Intensity [abs]	
2	8.5081	122.6418	5082.9516	7424.3115	19040.42	
7	8.4729	120.4327	5061.9223	7290.5802	29612.16	
43	8.4729	121.5776	5061.9223	7359.8885	163877.44	
17	8.4435	109.9190	5044.3580	6654.1170	67829.02	
23	8.4318	122.6902	5037.3681	7427.2414	108928.68	
32	8.4083	121.4970	5023.3286	7355.0092	136715.20	
62	8.3789	125.4315	5005.7643	7593.1903	201707.24	
37	8.3730	109.6448	5002.2395	6637.5179	139941.23	
42	8.3730	123.2869	5002.2395	7463.3636	152885.57	
5	8.3378	110.1608	4981.2102	6668.7548	29073.04	
22	8.3378	108.9514	4981.2102	6595.5419	92962.75	
65	8.3202	122.6096	4970.6955	7422.3622	212045.18	
33	8.3026	123.0127	4960.1808	7446.7645	136940.61	
40	8.3026	125.5122	4960.1808	7598.0756	143941.39	
1	8.2967	125.8992	4956.6560	7621.5032	18754.15	
21	8.2908	109.7900	4953.1312	6646.3078	90735.07	
10	8.2850	116.4658	4949.6661	7050.4377	32023.05	
16	8.2674	108.2258	4939.1514	6551.6166	63093.85	
38	8.2674	119.4813	4939.1514	7232.9857	141334.56	
19	8.2556	122.8999	4932.1018	7439.9359	74772.18	
15	8.2497	125.8669	4928.5770	7619.5479	56526.84	
58	8.2497	118.7556	4928.5770	7189.0543	190714.70	
25	8.2439	126.2378	4925.1120	7642.0009	111927.19	
53	8.2439	121.2067	4925.1120	7337.4355	182810.64	
20	8.2380	123.8512	4921.5871	7497.5244	77047.52	
18	8.2321	125.1413	4918.0623	7575.6226	72721.26	
60	8.2321	124.7543	4918.0623	7552.1949	197187.61	
50	8.2204	119.9167	4911.0725	7259.3433	176063.20	
27	8.2145	109.0321	4907.5477	6600.4272	120208.30	
54	8.2145	125.5767	4907.5477	7601.9802	188179.73	
14	8.1969	117.4979	4897.0330	7112.9175	50475.70	
45	8.1910	119.6103	4893.5082	7240.7949	166864.66	
46	8.1910	123.2869	4893.5082	7463.3636	168908.78	
29	8.1852	122.2871	4890.0431	7402.8391	127421.16	
56	8.1734	124.2544	4882.9935	7521.9327	189557.17	
64	8.1675	119.7877	4879.4687	7251.5341	202580.60	
79	8.1675	124.7220	4879.4687	7550.2396	347237.38	
26	8.1617	113.4827	4876.0036	6869.8511	112653.40	
51	8.1617	121.4647	4876.0036	7353.0539	176853.36	
41	8.1499	114.5308	4868.9540	6933.2995	144412.46	
75	8.1499	120.5133	4868.9540	7295.4594	284158.77	
57	8.1264	123.8351	4854.9145	7496.5497	190207.92	
70	8.1264	122.2871	4854.9145	7402.8391	237828.75	
55	8.1206	119.5135	4851.4495	7234.9350	188242.11	
76	8.1147	121.8840	4847.9246	7378.4369	286301.42	
78	8.1147	120.5456	4847.9246	7297.4147	305908.36	
24	8.1088	117.9816	4844.3998	7142.1990	111176.46	
28	8.1088	122.6741	4844.3998	7426.2668	122982.66	
77	8.1030	124.5285	4840.9348	7538.5258	287177.74	
66	8.0971	121.2228	4837.4100	7338.4101	213055.62	
47	8.0853	120.5133	4830.3604	7295.4594	169455.73	
71	8.0853	121.9162	4830.3604	7380.3861	244000.33	
31	8.0677	114.5308	4819.8457	6933.2995	128066.81	
59	8.0619	121.3357	4816.3806	7345.2447	194728.04	
73	8.0619	122.8676	4816.3806	7437.9806	262825.18	
48	8.0560	120.3037	4812.8558	7282.7710	169479.06	
67	8.0442	124.6253	4805.8062	7544.3857	220687.40	
36	8.0325	122.5773	4798.8163	7420.4069	138289.85	
74	8.0325	120.8681	4798.8163	7316.9378	281724.99	
39	8.0266	125.3832	4795.2915	7590.2664	141762.38	
69	8.0266	121.1583	4795.2915	7334.5055	237654.48	
44	7.9973	122.4806	4777.7870	7414.5530	165522.65	
30	7.9855	113.9987	4770.7373	6901.0880	127745.15	
34	7.9562	123.5610	4753.2328	7479.9567	137650.79	
72	7.9444	119.8360	4746.1832	7254.4580	257831.68	
49	7.9209	122.2548	4732.1437	7400.8838	171823.86	
61	7.8916	123.4642	4714.6391	7474.0967	199952.12	
35	7.8740	112.1281	4704.1244	6787.8483	138220.71	
63	7.8622	120.2553	4697.0748	7279.8410	202021.03	
52	7.7800	123.4159	4647.9665	7471.1728	177918.26	
68	7.7683	128.6888	4640.9766	7790.3760	231062.40	
4	7.6861	113.0473	4591.8683	6843.4935	25423.52	
3	7.6802	113.7084	4588.3435	6883.5142	25388.25	
12	7.5393	112.6441	4504.1663	6819.0852	41043.29	
13	7.5393	113.2408	4504.1663	6855.2074	45634.39	
6	6.8758	112.4023	4107.7748	6804.4475	29528.16	
