#Peak	ν(F2) [ppm]	ν(F1) [ppm]	ν(F2) [Hz]	ν(F1) [Hz]	Intensity [abs]	
### Minus
4	8.4787	123.3997	5065.3873	7470.1921	9155.66	
17	8.4729	109.7093	5061.9223	6641.4225	9947.32	
26	8.4729	120.3843	5061.9223	7287.6502	10500.24	
9	8.4611	121.3357	5054.8727	7345.2447	9537.82	
21	8.4376	120.4488	5040.8332	7291.5548	10134.03	
10	8.4318	122.2387	5037.3681	7399.9092	9540.29	
40	8.4259	122.7225	5033.8433	7429.1968	17661.64	
36	8.4141	121.4970	5026.7937	7355.0092	15899.43	
53	8.3965	119.9328	5016.2790	7260.3179	24902.43	
32	8.3789	123.2869	5005.7643	7463.3636	12262.00	
56	8.3789	125.4315	5005.7643	7593.1903	25954.84	
54	8.3730	109.6771	5002.2395	6639.4732	24932.86	
24	8.3378	122.9482	4981.2102	7442.8599	10401.65	
52	8.3378	110.1770	4981.2102	6669.7355	24475.11	
82	8.3378	108.9514	4981.2102	6595.5419	53923.15	
38	8.3319	122.5935	4977.6854	7421.3875	17545.14	
28	8.3261	121.0454	4974.2203	7327.6709	10922.26	
18	8.3143	120.6907	4967.1707	7306.1986	9956.50	
60	8.3143	123.0127	4967.1707	7446.7645	27557.78	
20	8.3085	120.7229	4963.7056	7308.1479	9961.59	
89	8.3085	125.5122	4963.7056	7598.0756	105162.98	
78	8.2967	109.8061	4956.6560	6647.2825	44858.27	
30	8.2850	116.4658	4949.6661	7050.4377	11347.94	
19	8.2732	129.8821	4942.6165	7862.6142	9959.60	
64	8.2732	119.4652	4942.6165	7232.0111	29852.10	
76	8.2732	108.2258	4942.6165	6551.6166	40467.09	
87	8.2615	120.7229	4935.6266	7308.1479	78810.16	
68	8.2556	118.8363	4932.1018	7193.9396	33315.69	
84	8.2497	125.8508	4928.5770	7618.5732	65277.36	
63	8.2439	126.2055	4925.1120	7640.0456	28906.54	
88	8.2380	123.8512	4921.5871	7497.5244	80286.68	
90	8.2380	121.0132	4921.5871	7325.7216	117818.36	
58	8.2263	124.7704	4914.5973	7553.1696	26481.25	
80	8.2204	119.9167	4911.0725	7259.3433	49850.55	
37	8.2145	109.0321	4907.5477	6600.4272	16867.72	
73	8.2145	125.5605	4907.5477	7600.9995	39373.07	
12	8.2028	120.5456	4900.5578	7297.4147	9636.78	
27	8.2028	125.2703	4900.5578	7583.4318	10782.08	
13	8.1969	120.5133	4897.0330	7295.4594	9679.31	
35	8.1969	117.5140	4897.0330	7113.8921	13455.47	
43	8.1910	119.5942	4893.5082	7239.8203	18030.73	
25	8.1852	122.2871	4890.0431	7402.8391	10428.54	
83	8.1617	120.3521	4876.0036	7285.7009	58957.84	
91	8.1617	124.6253	4876.0036	7544.3857	164169.85	
92	8.1558	113.4827	4872.4788	6869.8511	179231.55	
48	8.1206	119.5297	4851.4495	7235.9157	20000.07	
55	8.1206	123.8512	4851.4495	7497.5244	25022.02	
47	8.1088	122.7064	4844.3998	7428.2221	19647.02	
49	8.1088	121.9001	4844.3998	7379.4115	21764.41	
33	8.0971	117.9655	4837.4100	7141.2244	12570.21	
29	8.0912	124.5446	4833.8852	7539.5004	11003.80	
34	8.0912	122.2065	4833.8852	7397.9599	12935.98	
46	8.0795	121.9162	4826.8953	7380.3861	19401.29	
86	8.0795	120.5294	4826.8953	7296.4340	72424.54	
72	8.0677	122.8354	4819.8457	7436.0313	39011.98	
85	8.0677	121.3357	4819.8457	7345.2447	65572.51	
62	8.0619	114.5308	4816.3806	6933.2995	28560.65	
71	8.0560	120.2876	4812.8558	7281.7963	37645.71	
69	8.0442	124.6253	4805.8062	7544.3857	35558.66	
3	8.0325	109.0321	4798.8163	6600.4272	9139.59	
77	8.0325	120.8519	4798.8163	7315.9571	42542.72	
79	8.0325	125.3832	4798.8163	7590.2664	47448.36	
75	8.0266	121.1744	4795.2915	7335.4801	40337.27	
59	7.9973	122.4806	4777.7870	7414.5530	27223.67	
61	7.9855	113.9987	4770.7373	6901.0880	27848.57	
16	7.9562	123.4965	4753.2328	7476.0520	9921.43	
67	7.9386	119.8522	4742.7181	7255.4387	33174.23	
44	7.9327	124.7865	4739.1933	7554.1442	19041.58	
57	7.9209	122.2548	4732.1437	7400.8838	26119.20	
31	7.9033	124.0770	4721.6290	7511.1935	11676.38	
51	7.9033	123.4642	4721.6290	7474.0967	23901.49	
5	7.8622	123.1256	4697.0748	7453.5990	9201.05	
14	7.8446	128.7050	4686.5602	7791.3567	9701.82	
15	7.8035	124.0125	4662.0060	7507.2889	9885.48	
93	7.7742	128.6888	4644.5014	7790.3760	285016.50	
1	7.7331	113.0150	4619.9473	6841.5382	9108.44	
41	7.6802	113.0634	4588.3435	6844.4682	17725.37	
23	7.6509	120.9003	4570.8389	7318.8871	10358.38	
2	7.5980	125.8185	4539.2351	7616.6179	9126.24	
7	7.5863	109.5481	4532.2453	6631.6640	9313.54	
81	7.5452	112.5958	4507.6911	6816.1613	51296.50	
42	7.5393	112.0475	4504.1663	6782.9691	17866.36	
50	7.5393	113.2730	4504.1663	6857.1566	21852.71	
11	7.5334	116.4013	4500.6415	7046.5331	9588.72	
6	7.3338	122.8515	4381.3955	7437.0060	9228.01	
8	6.9756	117.7720	4167.3978	7129.5106	9336.14	
22	6.9345	109.2578	4142.8437	6614.0903	10353.92	
45	6.8758	112.8215	4107.7748	6829.8244	19293.56	
66	6.8758	112.4345	4107.7748	6806.3967	32025.07	
65	6.8465	113.0312	4090.2703	6842.5189	30168.20	
39	6.8230	112.9344	4076.2308	6836.6590	17608.44	
70	6.8230	112.5635	4076.2308	6814.2059	36526.95	
74	6.8230	111.9991	4076.2308	6780.0391	39373.34	
## Plus
Peak	ν(F2) [ppm]	ν(F1) [ppm]	ν(F2) [Hz]	ν(F1) [Hz]	Intensity [abs]	
16	8.3554	121.3357	4991.7248	7345.2447	10395.79	
14	8.2850	108.8708	4949.6661	6590.6626	10247.88	
15	8.2086	123.0934	4904.0229	7451.6498	10383.90	
20	8.2086	123.4481	4904.0229	7473.1221	11393.97	
17	8.2028	123.1579	4900.5578	7455.5544	10590.64	
22	8.2028	123.3836	4900.5578	7469.2175	11541.50	
26	8.1969	123.2869	4897.0330	7463.3636	12122.00	
19	8.1499	114.5469	4868.9540	6934.2741	10765.88	
21	8.1441	110.0480	4865.4889	6661.9263	11411.23	
23	8.1382	123.7545	4861.9641	7491.6705	11923.70	
28	8.1323	122.2710	4858.4393	7401.8645	14378.66	
13	7.9562	114.9339	4753.2328	6957.7018	10115.78	
24	7.7624	128.4147	4637.4518	7773.7829	11983.94	
30	7.7389	128.6888	4623.4123	7790.3760	20561.50	
27	7.7213	128.7050	4612.8977	7791.3567	12372.10	
25	7.6861	128.6888	4591.8683	7790.3760	12072.94	
18	7.6743	117.5785	4584.8187	7117.7967	10758.23	
10	7.6215	128.5921	4553.2746	7784.5221	9422.47	
12	7.5510	118.9975	4511.1562	7203.6981	9975.53	
29	7.5393	113.0312	4504.1663	6842.5189	16014.71	
11	7.5041	119.4490	4483.1369	7231.0304	9901.56	
1	7.3338	122.8515	4381.3955	7437.0060	9228.01	
2	6.9756	117.7720	4167.3978	7129.5106	9336.14	
3	6.9345	109.2578	4142.8437	6614.0903	10353.92	
5	6.8758	112.8215	4107.7748	6829.8244	19293.56	
7	6.8758	112.4345	4107.7748	6806.3967	32025.07	
6	6.8465	113.0312	4090.2703	6842.5189	30168.20	
4	6.8230	112.9344	4076.2308	6836.6590	17608.44	
8	6.8230	112.5635	4076.2308	6814.2059	36526.95	
9	6.8230	111.9991	4076.2308	6780.0391	39373.34	
